DM Phase Plot X,DM Phase Plot Y,DM Gain Plot X,DM Gain Plot Y
1,-0.8444885374314698,1,102.6804586674003
1.029200527194428,-0.869144626418936,1.029200527194428,102.6804027676911
1.059253725177289,-0.8945203412276072,1.059253725177289,102.6803435565006
1.090184492385128,-0.9206366652441922,1.090184492385128,102.680280837707
1.122018454301964,-0.9475151918419984,1.122018454301964,102.6802144035789
1.154781984689459,-0.9751781419468843,1.154781984689459,102.6801440340897
1.188502227437019,-1.003648382093983,1.188502227437019,102.6800694961896
1.223207119049932,-1.032949442987521,1.223207119049932,102.6799905430365
1.258925411794168,-1.063105538576272,1.258925411794168,102.6799069131804
1.29568669751702,-1.094141585657303,1.29568669751702,102.6798183297001
1.333521432163325,-1.126083224020904,1.333521432163325,102.6797244992892
1.372460961007563,-1.158956837149649,1.372460961007563,102.6796251112878
1.412537544622755,-1.192789573484742,1.412537544622755,102.6795198366576
1.453784385607663,-1.227609368272847,1.453784385607663,102.6794083268966
1.496235656094435,-1.263444966006763,1.496235656094435,102.6792902128894
1.539926526059493,-1.300325943473252,1.539926526059493,102.6791651036907
1.584893192461115,-1.338282733421507,1.584893192461115,102.6790325852364
1.63117290922784,-1.37734664886564,1.63117290922784,102.6788922189801
1.678804018122562,-1.417549908034596,1.678804018122562,102.678743540448
1.727825980507865,-1.45892565998281,1.727825980507865,102.67858605771
1.778279410038925,-1.501508010874837,1.778279410038925,102.6784192497611
1.830206106311058,-1.545332050957007,1.830206106311058,102.6782425648072
1.883649089489803,-1.590433882228958,1.883649089489803,102.6780554184508
1.93865263595221,-1.636850646827634,1.93865263595221,102.6778571917708
1.995262314968882,-1.684620556135999,1.995262314968882,102.6776472292888
2.053525026457149,-1.733782920628302,2.053525026457149,102.6774248368179
2.11348903983665,-1.784378180463299,2.11348903983665,102.6771892791843
2.175204034019526,-1.836447936836214,2.175204034019526,102.6769397778172
2.238721138568343,-1.890034984099491,2.238721138568343,102.6766755081967
2.30409297605585,-1.945183342661858,2.30409297605585,102.6763955971539
2.37137370566166,-2.001938292674048,2.37137370566166,102.6760991200138
2.440619068041985,-2.060346408508687,2.440619068041985,102.675785097571
2.511886431509585,-2.120455594040659,2.511886431509585,102.6754524928906
2.585234839562196,-2.182315118732987,2.585234839562196,102.6751002079229
2.660725059798815,-2.245975654531628,2.660725059798815,102.6747270799222
2.738419634264367,-2.311489313571237,2.738419634264367,102.6743318776575
2.81838293126446,-2.378909686691789,2.81838293126446,102.6739132974052
2.90068119869316,-2.448291882764017,2.90068119869316,102.6734699587091
2.985382618917967,-2.519692568819364,2.985382618917967,102.6730003998977
3.072557365267454,-2.593170010977305,3.072557365267454,102.6725030733415
3.162277660168388,-2.668784116160465,3.162277660168388,102.6719763404392
3.254617834980468,-2.74659647458434,3.254617834980468,102.6714184663164
3.349654391578286,-2.826670403005261,3.349654391578286,102.6708276142203
3.447466065731504,-2.909070988706021,3.447466065731504,102.6702018395945
3.548133892335765,-2.993865134194812,3.548133892335765,102.6695390838165
3.651741272548388,-3.081121602587751,3.651741272548388,102.6688371675792
3.758374042884453,-3.170911063640745,3.758374042884453,102.6680937838968
3.868120546330533,-3.263306140390269,3.868120546330533,102.6673064907155
3.981071705534985,-3.358381456356633,3.981071705534985,102.6664727031081
4.097321098135428,-3.456213683256362,4.097321098135428,102.6655896850289
4.216965034285836,-3.556881589162945,4.216965034285836,102.6646545406077
4.340102636447452,-3.660466087046879,4.340102636447452,102.6636642049571
4.466835921509645,-3.76705028361709,4.466835921509645,102.6626154344696
4.597269885308736,-3.876719528375772,4.597269885308736,102.6615047965752
4.73151258961482,-3.989561462788851,4.73151258961482,102.6603286589368
4.869675251658648,-4.105666069461342,4.869675251658648,102.65908317805
5.01187233627274,-4.225125721195753,5.01187233627274,102.6577642872205
5.158221650723075,-4.348035229796892,5.158221650723075,102.6563676838894
5.308844442309902,-4.474491894471923,5.308844442309902,102.6548888162704
5.463865498818562,-4.604595549658989,5.463865498818562,102.6533228692715
5.623413251903512,-4.738448612098787,5.623413251903512,102.6516647496629
5.787619883491228,-4.876156126946761,5.787619883491228,102.6499090704589
5.956621435290127,-5.017825812700699,5.956621435290127,102.6480501344768
6.13055792149823,-5.163568104698747,6.13055792149823,102.6460819170365
6.309573444801956,-5.313496196917693,6.309573444801956,102.6439980477635
6.493816315762138,-5.467726081776298,6.493816315762138,102.6417917914568
6.683439175686172,-5.626376587621108,6.683439175686172,102.6394560279836
6.878599123088104,-5.789569413542354,6.878599123088104,102.636983231161
7.079457843841408,-5.957429161136431,7.079457843841408,102.6343654465869
7.286181745132307,-6.130083362796833,7.286181745132307,102.631594268378
7.498942093324589,-6.307662506080459,7.498942093324589,102.6286608147803
7.717915155850156,-6.490300053656589,7.717915155850156,102.6255557026094
7.943282347242849,-6.678132458305027,7.943282347242849,102.6222690204856
8.175230379436535,-6.871299172387631,8.175230379436535,102.6187903008277
8.413951416451987,-7.069942651168949,8.413951416451987,102.615108490569
8.659643233600692,-7.274208349315285,8.659643233600692,102.6112119205659
8.912509381337495,-7.484244709848823,8.912509381337495,102.6070882736668
9.172759353897836,-7.70020314477978,9.172759353897836,102.6027245514184
9.440608762859275,-7.922238006583155,9.440608762859275,102.5981070393841
9.716279515771106,-8.150506549627307,9.716279515771106,102.59322127106
10.00000000000005,-8.385168880600858,10.00000000000005,102.5880519903761
10.29200527194433,-8.626387896919908,10.29200527194433,102.5825831127772
10.59253725177294,-8.874329212034858,10.59253725177294,102.57679768489
10.90184492385133,-9.129161066484393,10.90184492385133,102.5706778427839
11.22018454301969,-9.391054223482858,11.22018454301969,102.5642047688525
11.54781984689464,-9.660181847753176,11.54781984689464,102.5573586473474
11.88502227437024,-9.936719366251477,11.88502227437024,102.5501186186119
12.23207119049937,-10.22084430936339,12.23207119049937,102.5424627320787
12.58925411794173,-10.51273613108306,12.58925411794173,102.5343678981085
12.95686697517026,-10.8125760066256,12.95686697517026,102.5258098387685
13.33521432163331,-11.12054660586309,13.33521432163331,102.5167630376679
13.72460961007569,-11.4368318409215,13.72460961007569,102.5072006889921
14.12537544622761,-11.7616165862295,14.12537544622761,102.4970946459017
14.53784385607669,-12.09508636927133,14.53784385607669,102.4864153684892
14.96235656094441,-12.43742703026962,14.96235656094441,102.4751318715157
15.399265260595,-12.7888243490114,15.399265260595,102.4632116721855
15.84893192461122,-13.14946363703066,15.84893192461122,102.4506207382465
16.31172909227847,-13.51952929338285,16.31172909227847,102.437323436745
16.78804018122569,-13.89920432228894,16.78804018122569,102.4232824838043
17.27825980507873,-14.28866981099155,17.27825980507873,102.4084588958328
17.78279410038932,-14.68810436626346,17.78279410038932,102.3928119426205
18.30206106311066,-15.09768350813425,18.30206106311066,102.3762991028216
18.83649089489811,-15.51757901956535,18.83649089489811,102.3588760223732
19.38652635952218,-15.94795825100469,19.38652635952218,102.340496476448
19.95262314968891,-16.38898337900285,19.95262314968891,102.3211123355902
20.53525026457158,-16.84081061836131,20.53525026457158,102.3006735367314
21.13489039836659,-17.3035893876383,21.13489039836659,102.279128059836
21.75204034019535,-17.77746142823198,21.75204034019535,102.2564219109726
22.38721138568353,-18.26255987772669,22.38721138568353,102.2324991126514
23.04092976055859,-18.75900829870779,23.04092976055859,102.2073017023124
23.7137370566167,-19.26691966483533,23.7137370566167,102.1807697398834
24.40619068041995,-19.78639530661851,24.40619068041995,102.1528413253588
25.11886431509596,-20.31752382004291,25.11886431509596,102.1234526273698
25.85234839562207,-20.86037994198042,25.85234839562207,102.092537923731
26.60725059798827,-21.41502339714185,26.60725059798827,102.0600296549452
27.38419634264379,-21.9814977222259,27.38419634264379,102.0258584916391
28.18382931264472,-22.55982907384261,28.18382931264472,101.9899534168672
29.00681198693173,-23.15002502776662,29.00681198693173,101.9522418241794
29.85382618917979,-23.75207337806039,29.85382618917979,101.9126496322784
30.72557365267467,-24.36594094561444,30.72557365267467,101.8711014170032
31.622776601684,-24.99157240663361,31.622776601684,101.8275205612681
32.5461783498048,-25.62888915256316,32.5461783498048,101.781829423446
33.49654391578299,-26.277788193848,33.49654391578299,101.7339495245286
34.47466065731518,-26.93814112074119,34.47466065731518,101.6838017542067
35.4813389233578,-27.60979313509024,35.4813389233578,101.6313065958057
36.51741272548403,-28.29256216759943,36.51741272548403,101.5763843697711
37.58374042884468,-28.98623809547381,37.58374042884468,101.5189554951457
38.6812054633055,-29.69058207554713,38.6812054633055,101.4589407681989
39.81071705535001,-30.40532600796703,39.81071705535001,101.3962616570727
40.97321098135445,-31.13017214522295,40.97321098135445,101.3308406110045
42.16965034285853,-31.86479286073105,42.16965034285853,101.2626013823694
43.4010263644747,-32.60883059031545,43.4010263644747,101.1914693594724
44.66835921509664,-33.36189795873657,44.66835921509664,101.1173719077102
45.97269885308756,-34.12357810190337,45.97269885308756,101.0402387164286
47.31512589614841,-34.89342519357884,47.31512589614841,100.9600021485279
48.69675251658668,-35.67096518324337,48.69675251658668,100.8765975896272
50.11872336272761,-36.45569674935732,50.11872336272761,100.7899637933937
51.58221650723097,-37.24709246958801,51.58221650723097,100.700043219488
53.08844442309925,-38.04460020666971,53.08844442309925,100.6067823604728
54.63865498818585,-38.84764470552366,54.63865498818585,100.5101320539896
56.23413251903535,-39.65562939411481,56.23413251903535,100.4100477765353
57.87619883491252,-40.46793837736074,57.87619883491252,100.3064899152612
59.56621435290152,-41.28393861026819,59.56621435290152,100.1994240143816
61.30557921498256,-42.1029822334889,61.30557921498256,100.0888209930169
63.09573444801983,-42.92440905167949,63.09573444801983,99.97465733159744
64.93816315762166,-43.74754913253282,64.93816315762166,99.85691522432295
66.834391756862,-44.57172550218059,66.834391756862,99.73558269559668
68.78599123088132,-45.3962569109029,68.78599123088132,99.61065367882625
70.79457843841438,-46.22046064177756,70.79457843841438,99.48212805649277
72.86181745132338,-47.0436553341146,72.86181745132338,99.35001166092833
74.98942093324621,-47.86516379322799,74.98942093324621,99.21431623578998
77.17915155850189,-48.68431575836432,77.17915155850189,99.07505935877005
79.43282347242882,-49.50045060138563,79.43282347242882,98.93226432662001
81.7523037943657,-50.31291993007802,81.7523037943657,98.78596000407595
84.13951416452024,-51.12109007171014,84.13951416452024,98.63618063874944
86.59643233600728,-51.92434441461507,86.59643233600728,98.48296564447323
89.12509381337533,-52.72208558807652,89.12509381337533,98.32635935596073
91.72759353897877,-53.51373746359506,91.72759353897877,98.16641075794637
94.40608762859317,-54.2987469635881,94.40608762859317,98.00317319220913
97.16279515771149,-55.07658566671736,97.16279515771149,97.83670404605246
100.0000000000009,-55.84675120219138,100.0000000000009,97.66706442590704
102.9200527194437,-56.60876842855115,102.9200527194437,97.49431881975165
105.9253725177299,-57.36219039548577,105.9253725177299,97.31853475200663
109.0184492385138,-58.10659909013793,109.0184492385138,97.13978243445561
112.2018454301974,-58.84160597203467,112.2018454301974,96.95813441659568
115.4781984689469,-59.56685230322079,115.4781984689469,96.77366523861387
118.8502227437029,-60.28200928232413,118.8502227437029,96.58645108994811
122.3207119049943,-60.98677799312113,122.3207119049943,96.39656947611762
125.8925411794179,-61.68088917970822,125.8925411794179,96.20409889621507
129.5686697517032,-62.36410286156426,129.5686697517032,96.00911853314265
133.3521432163337,-63.03620780270234,133.3521432163337,95.81170795836115
137.2460961007575,-63.69702084967187,137.2460961007575,95.6119468526056
141.2537544622768,-64.34638615347924,141.2537544622768,95.40991474371337
145.3784385607676,-64.98417429053545,145.3784385607676,95.20569076241557
149.6235656094448,-65.61028129754564,149.6235656094448,94.99935341666304
153.9926526059507,-66.22462763485808,153.9926526059507,94.7909803847988
158.4893192461129,-66.82715709222801,158.4893192461129,94.58064832765299
163.1172909227854,-67.41783565024176,163.1172909227854,94.36843271942318
167.8804018122577,-67.9966503098305,167.8804018122577,94.15440769701652
172.782598050788,-68.56360790140054,172.782598050788,93.93864592736806
177.827941003894,-69.11873388415104,177.827941003894,93.72121849211337
183.0206106311074,-69.66207114516473,183.0206106311074,93.50219478888165
188.3649089489819,-70.19367880685134,188.3649089489819,93.28164244838563
193.8652635952227,-70.71363105033605,193.8652635952227,93.05962726641741
199.52623149689,-71.22201596141174,199.52623149689,92.83621314981168
205.3525026457167,-71.71893440474268,205.3525026457167,92.61146207540661
211.3489039836668,-72.20449893111437,211.3489039836668,92.38543406101954
217.5204034019545,-72.67883272169036,217.5204034019545,92.15818714745325
223.8721138568363,-73.14206857245962,223.8721138568363,91.92977739056045
230.409297605587,-73.59434792134107,230.409297605587,91.70025886241548
237.137370566168,-74.03581991976037,237.137370566168,91.46968366067182
244.0619068042006,-74.46664054992934,244.0619068042006,91.23810192522085
251.1886431509607,-74.88697178852703,251.1886431509607,91.00556186130808
258.5234839562218,-75.29698081702631,258.5234839562218,90.77210976830915
266.0725059798838,-75.69683927850105,266.0725059798838,90.53779007341547
273.841963426439,-76.08672258039917,273.841963426439,90.3026453695288
281.8382931264484,-76.46680924247497,281.8382931264484,90.06671645671487
290.0681198693185,-76.83728028881875,290.0681198693185,89.8300423866153
298.5382618917992,-77.19831868272345,298.5382618917992,89.59266050926762
307.255736526748,-77.55010880295832,307.255736526748,89.35460652183012
316.2277660168414,-77.89283595989447,316.2277660168414,89.11591451875626
325.4617834980495,-78.22668594982865,325.4617834980495,88.87661704300614
334.9654391578314,-78.55184464578471,334.9654391578314,88.63674513792648
344.7466065731533,-78.86849762302978,344.7466065731533,88.39632839946964
354.8133892335795,-79.17682981751773,354.8133892335795,88.15539502845972
365.1741272548418,-79.4770252154747,365.1741272548418,87.91397188264924
375.8374042884485,-79.76926657235053,375.8374042884485,87.6720845283416
386.8120546330566,-80.0537351593867,386.8120546330566,87.42975729138536
398.1071705535019,-80.33061053609258,398.1071705535019,87.18701330737274
409.7321098135463,-80.60007034696193,409.7321098135463,86.94387457090107
421.6965034285872,-80.86229014082015,421.6965034285872,86.70036198377767
434.010263644749,-81.11744321124884,434.010263644749,86.45649540207015
446.6835921509684,-81.36570045659843,446.6835921509684,86.21229368192209
459.7269885308777,-81.60723025816387,459.7269885308777,85.96777472407173
473.1512589614862,-81.84219837516733,473.1512589614862,85.72295551702484
486.967525165869,-82.07076785525987,486.967525165869,85.47785217884778
501.1872336272784,-82.2930989593218,501.1872336272784,85.23247999755749
515.8221650723119,-82.50934909940948,515.8221650723119,84.98685347009565
530.8844442309949,-82.71967278876394,530.8844442309949,84.74098633988363
546.3865498818609,-82.92422160286208,546.3865498818609,84.49489163296251
562.341325190356,-83.12314415055233,562.341325190356,84.24858169272899
578.7619883491278,-83.31658605438197,578.7619883491278,84.00206821328442
595.6621435290178,-83.50468993927915,595.6621435290178,83.75536227141843
613.0557921498283,-83.68759542881035,613.0557921498283,83.50847435725318
630.9573444802012,-83.86543914828903,630.9573444802012,83.26141440357776
649.3816315762195,-84.03835473406126,649.3816315762195,83.01419181390477
668.3439175686232,-84.20647284834334,668.3439175686232,82.76681548928346
687.8599123088164,-84.36992119903356,687.8599123088164,82.51929385390559
707.945784384147,-84.52882456396291,707.945784384147,82.27163487954162
728.6181745132371,-84.68330481909061,728.6181745132371,82.02384610884523
749.8942093324656,-84.83348097018991,749.8942093324656,81.77593467756556
771.7915155850225,-84.97946918760456,771.7915155850225,81.52790733570586
794.3282347242919,-85.12138284369145,794.3282347242919,81.27977046766831
817.5230379436607,-85.25933255259572,817.5230379436607,81.03153011142358
841.3951416452062,-85.39342621203468,841.3951416452062,80.78319197674412
865.9643233600768,-85.52376904679414,865.9643233600768,80.53476146253917
891.2509381337574,-85.6504636536671,891.2509381337574,80.286243673329
917.2759353897918,-85.77361004758666,917.2759353897918,80.03764343489507
944.060876285936,-85.89330570873047,944.060876285936,79.78896530914189
971.6279515771192,-86.0096456303902,971.6279515771192,79.54021360820545
1000.000000000014,-86.12272236742263,1000.000000000014,79.29139240784231
1029.200527194442,-86.23262608511287,1029.200527194442,79.0425055601319
1059.253725177303,-86.33944460829966,1059.253725177303,78.79355670552405
1090.184492385142,-86.44326347062474,1090.184492385142,78.54454928426237
1122.018454301979,-86.5441659637837,1122.018454301979,78.2954865472132
1154.781984689474,-86.64223318666849,1154.781984689474,78.04637156612849
1188.502227437035,-86.73754409430171,1188.502227437035,77.79720724336998
1223.207119049948,-86.83017554647586,1223.207119049948,77.54799632112146
1258.925411794184,-86.92020235601819,1258.925411794184,77.29874139011373
1295.686697517037,-87.00769733661292,1295.686697517037,77.04944489788694
1333.521432163342,-87.09273135011867,1333.521432163342,76.80010915661335
1372.460961007581,-87.17537335332852,1372.460961007581,76.55073635050258
1412.537544622774,-87.25569044412562,1412.537544622774,76.30132854281071
1453.784385607682,-87.33374790699355,1453.784385607682,76.05188768247331
1496.235656094454,-87.40960925784783,1496.235656094454,75.80241561038183
1539.926526059513,-87.48333628815783,1539.926526059513,75.55291406532163
1584.893192461136,-87.55498910833529,1584.893192461136,75.30338468958931
1631.172909227861,-87.62462619036847,1631.172909227861,75.05382903430602
1678.804018122584,-87.69230440968573,1678.804018122584,74.80424856444262
1727.825980507888,-87.75807908623518,1727.825980507888,74.55464466357185
1778.279410038948,-87.82200402477075,1778.279410038948,74.305018638362
1830.206106311082,-87.88413155433783,1830.206106311082,74.05537172282547
1883.649089489827,-87.94451256695351,1883.649089489827,73.80570508233568
1938.652635952235,-88.00319655548064,1938.652635952235,73.55601981742421
1995.262314968908,-88.06023165069404,1995.262314968908,73.30631696737028
2053.525026457176,-88.11566465754234,2053.525026457176,73.05659751359339
2113.489039836678,-88.16954109060818,2113.489039836678,72.80686238285992
2175.204034019555,-88.22190520877189,2175.204034019555,72.55711245031361
2238.721138568373,-88.27280004908553,2238.721138568373,72.3073485423393
2304.09297605588,-88.32226745986409,2304.09297605588,72.05757143926928
2371.373705661691,-88.3703481330033,2371.373705661691,71.80778187794033
2440.619068042017,-88.41708163553264,2440.619068042017,71.55798055410988
2511.886431509618,-88.46250644041446,2511.886431509618,71.30816812473887
2585.23483956223,-88.50665995659985,2585.23483956223,71.05834521014859
2660.72505979885,-88.54957855835268,2660.72505979885,70.80851239605811
