v /net1; tran (V) X,v /net1; tran (V) Y,v /VOUT; tran (V) X,v /VOUT; tran (V) Y,v /clk; tran (V) X,v /clk; tran (V) Y,v /net4; tran (V) X,v /net4; tran (V) Y
0,0.6,0,0.6000171190304203,0,1.19999926501685,0,0.6
1.513209633245842e-14,0.6000000000380311,1.513209633245842e-14,0.6000171350341693,1.513209633245842e-14,1.200105470809715,1.513209633245842e-14,0.6
2.721592271228231e-14,0.600000000068401,2.721592271228231e-14,0.6000171478081527,2.721592271228231e-14,1.200190328554704,2.721592271228231e-14,0.6
5.138357547193008e-14,0.600000000129141,5.138357547193008e-14,0.6000171732642628,5.138357547193008e-14,1.200359898923002,5.138357547193008e-14,0.6
9.149132715877757e-14,0.6000000002299427,9.149132715877757e-14,0.6000172152612984,9.149132715877757e-14,1.200640978326808,9.149132715877757e-14,0.6
1.591166870027107e-13,0.6000000003999039,1.591166870027107e-13,0.6000172853929754,1.591166870027107e-13,1.201114184219649,1.591166870027107e-13,0.6
2.94367406690577e-13,0.600000000739826,2.94367406690577e-13,0.6000174232287238,2.94367406690577e-13,1.202057999658014,2.94367406690577e-13,0.6
5.18341656205537e-13,0.6000000013027347,5.18341656205537e-13,0.6000176451913732,5.18341656205537e-13,1.203614883564866,5.18341656205537e-13,0.6
7.427762310948862e-13,0.6000000018668002,7.427762310948862e-13,0.6000178608347279,7.427762310948862e-13,1.205169195305585,7.427762310948862e-13,0.6
9.7790293815295e-13,0.6000000024577381,9.7790293815295e-13,0.6000180806782015,9.7790293815295e-13,1.206793363748926,9.7790293815295e-13,0.6
1.225755250616136e-12,0.6000000030806589,1.225755250616136e-12,0.6000183069959096,1.225755250616136e-12,1.208502786348764,1.225755250616136e-12,0.6
1.487269450945332e-12,0.6000000037379158,1.487269450945332e-12,0.6000185410868036,1.487269450945332e-12,1.210305561072782,1.487269450945332e-12,0.6
1.765432218653072e-12,0.6000000044370151,1.765432218653072e-12,0.6000187861549136,1.765432218653072e-12,1.212224229706398,1.765432218653072e-12,0.6
2.064114550556739e-12,0.6000000051876857,2.064114550556739e-12,0.6000190461557603,2.064114550556739e-12,1.214287381229188,2.064114550556739e-12,0.6
2.388744201967365e-12,0.600000006003569,2.388744201967365e-12,0.6000193261850357,2.388744201967365e-12,1.216532684418142,2.388744201967365e-12,0.6
2.741288410312567e-12,0.6000000068896092,2.741288410312567e-12,0.6000196273649123,2.741288410312567e-12,1.218965759689238,2.741288410312567e-12,0.6
3.136433528571988e-12,0.6000000078827172,3.136433528571988e-12,0.6000199580390698,3.136433528571988e-12,1.221651879561511,3.136433528571988e-12,0.6
3.608869043853237e-12,0.6000000090700771,3.608869043853237e-12,0.6000203294538803,3.608869043853237e-12,1.224688756939266,3.608869043853237e-12,0.6
4.193491518214909e-12,0.6000000105393937,4.193491518214909e-12,0.600020702503279,4.193491518214909e-12,1.227800100447716,4.193491518214909e-12,0.6
4.649322640744695e-12,0.6000000116850223,4.649322640744695e-12,0.6000208741491794,4.649322640744695e-12,1.229342004980726,4.649322640744695e-12,0.6
5.023903814736912e-12,0.6000000126264474,5.023903814736912e-12,0.6000208947550655,5.023903814736912e-12,1.229720759445147,5.023903814736912e-12,0.6
5.352391598852459e-12,0.6000000134520272,5.352391598852459e-12,0.6000207927453028,5.352391598852459e-12,1.229168153221374,5.352391598852459e-12,0.6
5.658710859963477e-12,0.6000000142218915,5.658710859963477e-12,0.6000205738232753,5.658710859963477e-12,1.227738823294722,5.658710859963477e-12,0.6
5.966210797946567e-12,0.6000000149947232,5.966210797946567e-12,0.6000202146114068,5.966210797946567e-12,1.225272298660716,5.966210797946567e-12,0.6
6.287745930408533e-12,0.6000000158028291,6.287745930408533e-12,0.6000196713716418,6.287745930408533e-12,1.221448393437133,6.287745930408533e-12,0.6
6.482314209562066e-12,0.6000000162918325,6.482314209562066e-12,0.6000192488761059,6.482314209562066e-12,1.218472743533178,6.482314209562066e-12,0.6
6.650896173635424e-12,0.6000000167155253,6.650896173635424e-12,0.6000188268176985,6.650896173635424e-12,1.215471747078631,6.650896173635424e-12,0.6
6.832903037203075e-12,0.6000000171729584,6.832903037203075e-12,0.6000183104097564,6.832903037203075e-12,1.211770995962841,6.832903037203075e-12,0.6
6.982089030837265e-12,0.6000000175479037,6.982089030837265e-12,0.6000178385366776,6.982089030837265e-12,1.208359422569956,6.982089030837265e-12,0.6
7.086642726380479e-12,0.6000000178106758,7.086642726380479e-12,0.600017483401507,7.086642726380479e-12,1.205775164563107,7.086642726380479e-12,0.6
7.165457263645384e-12,0.6000000180087584,7.165457263645384e-12,0.6000172022167203,7.165457263645384e-12,1.203718188907138,7.165457263645384e-12,0.6
7.268428861899865e-12,0.6000000182675541,7.268428861899865e-12,0.6000168175662198,7.268428861899865e-12,1.200888602911403,7.268428861899865e-12,0.6
7.474372058408827e-12,0.6000000187851459,7.474372058408827e-12,0.6000159907997634,7.474372058408827e-12,1.194743130816577,7.474372058408827e-12,0.6
7.763893079575679e-12,0.6000000195127916,7.763893079575679e-12,0.6000147024961884,7.763893079575679e-12,1.185000153317647,7.763893079575679e-12,0.6
8.063085368108337e-12,0.6000000202647437,8.063085368108337e-12,0.6000132201448924,8.063085368108337e-12,1.173563741475797,8.063085368108337e-12,0.6
8.394209520931098e-12,0.6000000210969495,8.394209520931098e-12,0.6000114097297902,8.394209520931098e-12,1.159258121106969,8.394209520931098e-12,0.6
8.785243109941034e-12,0.6000000220797241,8.785243109941034e-12,0.600009053454971,8.785243109941034e-12,1.140076760424104,8.785243109941034e-12,0.6
9.325588277204732e-12,0.6000000234377597,9.325588277204732e-12,0.6000054357263851,9.325588277204732e-12,1.109337198998086,9.325588277204732e-12,0.6
9.662794138602367e-12,0.6000000242852505,9.662794138602367e-12,0.6000029811146516,9.662794138602367e-12,1.087543655948238,9.662794138602367e-12,0.6
9.999999999999999e-12,0.6000000251327412,9.999999999999999e-12,0.6000003851975007,9.999999999999999e-12,1.063645614113938,9.999999999999999e-12,0.6
1.009031895772435e-11,0.6000000253597375,1.009031895772435e-11,0.5999996094047009,1.009031895772435e-11,1.056434694471428,1.009031895772435e-11,0.6
1.016849467784238e-11,0.6000000255562146,1.016849467784238e-11,0.5999989438672708,1.016849467784238e-11,1.050181078449176,1.016849467784238e-11,0.6
1.02534355604099e-11,0.6000000257696942,1.02534355604099e-11,0.5999982279363396,1.02534355604099e-11,1.043380767204472,1.02534355604099e-11,0.6
1.042297599272113e-11,0.6000000261957958,1.042297599272113e-11,0.5999968211647083,1.042297599272113e-11,1.029799135912064,1.042297599272113e-11,0.6
1.074675332482981e-11,0.600000027009537,1.074675332482981e-11,0.5999942067117355,1.074675332482981e-11,1.003842666971286,1.074675332482981e-11,0.6
1.112177711894579e-11,0.6000000279520746,1.112177711894579e-11,0.5999912743336326,1.112177711894579e-11,0.9737784703908049,1.112177711894579e-11,0.6
1.151006184501025e-11,0.6000000289279406,1.151006184501025e-11,0.5999883233374806,1.151006184501025e-11,0.9427018005283908,1.151006184501025e-11,0.6
1.1917472657172e-11,0.6000000299518756,1.1917472657172e-11,0.599985307348311,1.1917472657172e-11,0.9102004495363989,1.1917472657172e-11,0.6
1.233757714966048e-11,0.6000000310077134,1.233757714966048e-11,0.5999822899403385,1.233757714966048e-11,0.876849980407015,1.233757714966048e-11,0.6
1.26872892037927e-11,0.6000000318866356,1.26872892037927e-11,0.5999798689492708,1.26872892037927e-11,0.8492562880094803,1.26872892037927e-11,0.6
1.297486674858155e-11,0.6000000326093968,1.297486674858155e-11,0.5999779544902595,1.297486674858155e-11,0.8267055994091683,1.297486674858155e-11,0.6
1.32556203630717e-11,0.6000000333150076,1.32556203630717e-11,0.5999761585578068,1.32556203630717e-11,0.8048274033160455,1.32556203630717e-11,0.6
1.360358177750802e-11,0.6000000341895301,1.360358177750802e-11,0.5999740309264596,1.360358177750802e-11,0.7779143884807301,1.360358177750802e-11,0.6
1.40678141683132e-11,0.6000000353562733,1.40678141683132e-11,0.5999713363842446,1.40678141683132e-11,0.7423743420962109,1.40678141683132e-11,0.6
1.439545294379591e-11,0.6000000361797193,1.439545294379591e-11,0.5999695119416867,1.439545294379591e-11,0.7175481365473925,1.439545294379591e-11,0.6
1.467310836807923e-11,0.6000000368775436,1.467310836807923e-11,0.5999680029756773,1.467310836807923e-11,0.696671776340597,1.467310836807923e-11,0.6
1.496604190817818e-11,0.6000000376137659,1.496604190817818e-11,0.5999664379797733,1.496604190817818e-11,0.6748027418058402,1.496604190817818e-11,0.6
1.52793923512293e-11,0.6000000384013013,1.52793923512293e-11,0.5999647855882294,1.52793923512293e-11,0.6515810595499808,1.52793923512293e-11,0.6
1.561565643417378e-11,0.6000000392464252,1.561565643417378e-11,0.5999630298718857,1.561565643417378e-11,0.6268531212698546,1.561565643417378e-11,0.6
1.599875987694751e-11,0.6000000402092692,1.599875987694751e-11,0.5999610410726766,1.599875987694751e-11,0.598921420214527,1.599875987694751e-11,0.6
1.637194287283734e-11,0.6000000411471803,1.637194287283734e-11,0.5999591092682998,1.637194287283734e-11,0.5719633449149886,1.637194287283734e-11,0.6
1.674046058121304e-11,0.6000000420733663,1.674046058121304e-11,0.5999572032641362,1.674046058121304e-11,0.5455972007707709,1.674046058121304e-11,0.6
1.709341913617475e-11,0.600000042960448,1.709341913617475e-11,0.599955377962178,1.709341913617475e-11,0.5206002134987576,1.709341913617475e-11,0.6
1.742979169220198e-11,0.6000000438058444,1.742979169220198e-11,0.5999536388189849,1.742979169220198e-11,0.4970317782950756,1.742979169220198e-11,0.6
1.775640138824384e-11,0.6000000446267041,1.775640138824384e-11,0.5999519516555033,1.775640138824384e-11,0.474406595814,1.775640138824384e-11,0.6
1.807708466624322e-11,0.600000045432669,1.807708466624322e-11,0.5999502983331862,1.807708466624322e-11,0.4524634110411246,1.807708466624322e-11,0.6
1.839688272522014e-11,0.6000000462364092,1.839688272522014e-11,0.5999486555525642,1.839688272522014e-11,0.4308789443050948,1.839688272522014e-11,0.6
1.868986593299786e-11,0.6000000469727564,1.868986593299786e-11,0.5999471580097978,1.868986593299786e-11,0.4113873658816006,1.868986593299786e-11,0.6
1.900722706257629e-11,0.6000000477703719,1.900722706257629e-11,0.5999455427170646,1.900722706257629e-11,0.390617017730406,1.900722706257629e-11,0.6
1.93888062995748e-11,0.6000000487293852,1.93888062995748e-11,0.5999436247114066,1.93888062995748e-11,0.3661885486029122,1.93888062995748e-11,0.6
1.977977749231895e-11,0.6000000497120029,1.977977749231895e-11,0.5999417030723688,1.977977749231895e-11,0.3419345749335597,1.977977749231895e-11,0.6
2.015344224375975e-11,0.6000000506511248,2.015344224375975e-11,0.5999399240732231,2.015344224375975e-11,0.3196666692056144,2.015344224375975e-11,0.6
2.044195123638345e-11,0.600000051376227,2.044195123638345e-11,0.5999385949013855,2.044195123638345e-11,0.3031450948214401,2.044195123638345e-11,0.6
2.072413899565337e-11,0.6000000520854423,2.072413899565337e-11,0.5999373367472265,2.072413899565337e-11,0.2875973288807815,2.072413899565337e-11,0.6
2.102187389563315e-11,0.6000000528337317,2.102187389563315e-11,0.5999360572108805,2.102187389563315e-11,0.2718775429959362,2.102187389563315e-11,0.6
2.141205223585269e-11,0.6000000538143567,2.141205223585269e-11,0.5999344579634399,2.141205223585269e-11,0.2523659108754963,2.141205223585269e-11,0.6
2.188033426946902e-11,0.6000000549912778,2.188033426946902e-11,0.5999326561733546,2.188033426946902e-11,0.2305803531230286,2.188033426946902e-11,0.6
2.240168618228009e-11,0.6000000563015782,2.240168618228009e-11,0.5999307984459116,2.240168618228009e-11,0.2083701094339296,2.240168618228009e-11,0.6
2.296872777320101e-11,0.6000000577267092,2.296872777320101e-11,0.5999289483177052,2.296872777320101e-11,0.1865451449010795,2.296872777320101e-11,0.6
2.357805620728295e-11,0.6000000592581185,2.357805620728295e-11,0.5999271454336891,2.357805620728295e-11,0.1656232654855125,2.357805620728295e-11,0.6
2.422478302741218e-11,0.6000000608835203,2.422478302741218e-11,0.5999254250782368,2.422478302741218e-11,0.1460486324975749,2.422478302741218e-11,0.6
2.489401516640336e-11,0.6000000625654841,2.489401516640336e-11,0.5999238352288137,2.489401516640336e-11,0.128364056923873,2.489401516640336e-11,0.6
2.556092257477462e-11,0.6000000642416052,2.556092257477462e-11,0.5999224245915645,2.556092257477462e-11,0.113050123031022,2.556092257477462e-11,0.6
2.622861105489252e-11,0.6000000659196895,2.622861105489252e-11,0.5999211684614627,2.622861105489252e-11,0.09974691723446071,2.622861105489252e-11,0.6
2.684050089201126e-11,0.6000000674575363,2.684050089201126e-11,0.5999201416731753,2.684050089201126e-11,0.08912555860125773,2.684050089201126e-11,0.6
2.736097788824138e-11,0.6000000687656377,2.736097788824138e-11,0.5999193538623135,2.736097788824138e-11,0.08114102798027716,2.736097788824138e-11,0.6
2.782275739850372e-11,0.6000000699262161,2.782275739850372e-11,0.5999187152841517,2.782275739850372e-11,0.0747793406196874,2.782275739850372e-11,0.6
2.825248818775106e-11,0.6000000710062474,2.825248818775106e-11,0.5999181679033899,2.825248818775106e-11,0.06940809548609303,2.825248818775106e-11,0.6
2.867488228299972e-11,0.6000000720678396,2.867488228299972e-11,0.5999176704272554,2.867488228299972e-11,0.06459465346641696,2.867488228299972e-11,0.6
2.908793017516973e-11,0.6000000731059422,2.908793017516973e-11,0.5999172199280002,2.908793017516973e-11,0.06029400560703913,2.908793017516973e-11,0.6
2.937482376332645e-11,0.6000000738269844,2.937482376332645e-11,0.5999169268037571,2.937482376332645e-11,0.05752694848513379,2.937482376332645e-11,0.6
2.963566553273945e-11,0.6000000744825513,2.963566553273945e-11,0.5999166735808569,2.963566553273945e-11,0.05515713804771584,2.963566553273945e-11,0.6
3.015734907156545e-11,0.600000075793685,3.015734907156545e-11,0.5999162020470081,3.015734907156545e-11,0.05079672962289527,3.015734907156545e-11,0.6
3.0614964510829e-11,0.6000000769437981,3.0614964510829e-11,0.5999158247844075,3.0614964510829e-11,0.04736070703013427,3.0614964510829e-11,0.6
3.108613702513036e-11,0.6000000781279837,3.108613702513036e-11,0.5999154695328526,3.108613702513036e-11,0.04417241454306462,3.108613702513036e-11,0.6
3.179474403666444e-11,0.6000000799089074,3.179474403666444e-11,0.599914988234923,3.179474403666444e-11,0.03992867942304361,3.179474403666444e-11,0.6
3.224329006888305e-11,0.6000000810362266,3.224329006888305e-11,0.5999147091135817,3.224329006888305e-11,0.03750622473400173,3.224329006888305e-11,0.6
3.277044274314169e-11,0.6000000823611057,3.277044274314169e-11,0.5999144018275048,3.277044274314169e-11,0.03487144706879424,3.277044274314169e-11,0.6
3.316424488144201e-11,0.6000000833508384,3.316424488144201e-11,0.5999141855763522,3.316424488144201e-11,0.03303416815973679,3.316424488144201e-11,0.6
3.394077419283217e-11,0.6000000853024695,3.394077419283217e-11,0.5999137858674711,3.394077419283217e-11,0.0296856336924244,3.394077419283217e-11,0.6
3.472180958583641e-11,0.6000000872654255,3.472180958583641e-11,0.5999134165463368,3.472180958583641e-11,0.02664249828061592,3.472180958583641e-11,0.6
3.539405877936017e-11,0.600000088954972,3.539405877936017e-11,0.5999131230630025,3.539405877936017e-11,0.024262478618452,3.539405877936017e-11,0.6
3.61201782713895e-11,0.6000000907799093,3.61201782713895e-11,0.5999128304700126,3.61201782713895e-11,0.02192738255549469,3.61201782713895e-11,0.6
3.654642170569567e-11,0.600000091851176,3.654642170569567e-11,0.5999126703417423,3.654642170569567e-11,0.02066831433964363,3.654642170569567e-11,0.6
3.698396276244834e-11,0.6000000929508366,3.698396276244834e-11,0.599912514440173,3.698396276244834e-11,0.01945672245969459,3.698396276244834e-11,0.6
3.739607028903584e-11,0.6000000939865757,3.739607028903584e-11,0.5999123749724204,3.739607028903584e-11,0.0183855117423182,3.739607028903584e-11,0.6
3.775876158445107e-11,0.6000000948981183,3.775876158445107e-11,0.5999122577719836,3.775876158445107e-11,0.01749513829693557,3.775876158445107e-11,0.6
3.809502674969898e-11,0.6000000957432449,3.809502674969898e-11,0.5999121534856359,3.809502674969898e-11,0.01671081774664454,3.809502674969898e-11,0.6
3.840487802335224e-11,0.6000000965219862,3.840487802335224e-11,0.5999120609471927,3.840487802335224e-11,0.01602147018930135,3.840487802335224e-11,0.6
3.869142625998996e-11,0.6000000972421604,3.869142625998996e-11,0.5999119782913052,3.869142625998996e-11,0.01541131204524801,3.869142625998996e-11,0.6
3.896147596481311e-11,0.6000000979208693,3.896147596481311e-11,0.5999119028813596,3.896147596481311e-11,0.01485949302887874,3.896147596481311e-11,0.6
3.922167309091256e-11,0.6000000985748161,3.922167309091256e-11,0.5999118324327574,3.922167309091256e-11,0.01434838494576466,3.922167309091256e-11,0.6
3.947735537297831e-11,0.6000000992174157,3.947735537297831e-11,0.5999117652500934,3.947735537297831e-11,0.01386513212955602,3.947735537297831e-11,0.6
3.973346694080606e-11,0.6000000998610943,3.973346694080606e-11,0.5999116998843406,3.973346694080606e-11,0.01339895946911187,3.973346694080606e-11,0.6
3.999551677443579e-11,0.6000001005196973,3.999551677443579e-11,0.5999116349258933,3.999551677443579e-11,0.01293977764442165,3.999551677443579e-11,0.6
4.027274061041809e-11,0.6000001012164368,4.027274061041809e-11,0.5999115684150538,4.027274061041809e-11,0.01247444572205411,4.027274061041809e-11,0.6
4.057795134946512e-11,0.6000001019835151,4.057795134946512e-11,0.5999114976790757,4.057795134946512e-11,0.01198512802303992,4.057795134946512e-11,0.6
4.085337241834778e-11,0.6000001026757237,4.085337241834778e-11,0.5999114361708739,4.085337241834778e-11,0.01156502038223652,4.085337241834778e-11,0.6
4.108165613499272e-11,0.6000001032494633,4.108165613499272e-11,0.5999113868700067,4.108165613499272e-11,0.01123224583026616,4.108165613499272e-11,0.6
4.138261821341666e-11,0.6000001040058635,4.138261821341666e-11,0.5999113241994144,4.138261821341666e-11,0.01081496681379575,4.138261821341666e-11,0.6
4.165110983030184e-11,0.6000001046806565,4.165110983030184e-11,0.5999112706076235,4.165110983030184e-11,0.01046405032306981,4.165110983030184e-11,0.6
4.192594448652782e-11,0.6000001053713914,4.192594448652782e-11,0.5999112179039955,4.192594448652782e-11,0.01012464153723325,4.192594448652782e-11,0.6
4.222189623856945e-11,0.6000001061151992,4.222189623856945e-11,0.599911163530337,4.222189623856945e-11,0.009780998841403097,4.222189623856945e-11,0.6
4.249076991132432e-11,0.6000001067909525,4.249076991132432e-11,0.5999111162564685,4.249076991132432e-11,0.009488276935859115,4.249076991132432e-11,0.6
4.279904492205861e-11,0.6000001075657321,4.279904492205861e-11,0.5999110643963642,4.279904492205861e-11,0.009174073099439921,4.279904492205861e-11,0.6
4.315222417627948e-11,0.6000001084533684,4.315222417627948e-11,0.5999110078454635,4.315222417627948e-11,0.008840213684653344,4.315222417627948e-11,0.6
4.354559409000774e-11,0.6000001094420148,4.354559409000774e-11,0.5999109481310244,4.354559409000774e-11,0.008498078196637398,4.354559409000774e-11,0.6
4.39835346586741e-11,0.6000001105426794,4.39835346586741e-11,0.5999108853598325,4.39835346586741e-11,0.008150727458365833,4.39835346586741e-11,0.6
4.446749029505938e-11,0.6000001117589926,4.446749029505938e-11,0.599910819710241,4.446749029505938e-11,0.007800187504423454,4.446749029505938e-11,0.6
4.499388064474428e-11,0.6000001130819559,4.499388064474428e-11,0.5999107518958355,4.499388064474428e-11,0.007450715098599182,4.499388064474428e-11,0.6
4.555071642996745e-11,0.6000001144814369,4.555071642996745e-11,0.5999106834352339,4.555071642996745e-11,0.007109650830751615,4.555071642996745e-11,0.6
4.61206029347326e-11,0.6000001159137178,4.61206029347326e-11,0.5999106159310643,4.61206029347326e-11,0.006782418282654312,4.61206029347326e-11,0.6
4.671306719557618e-11,0.6000001174027429,4.671306719557618e-11,0.5999105477876294,4.671306719557618e-11,0.006459061001814136,4.671306719557618e-11,0.6
4.729294109291126e-11,0.6000001188601251,4.729294109291126e-11,0.5999104826347539,4.729294109291126e-11,0.006154937351537625,4.729294109291126e-11,0.6
