DM Phase Plot X,DM Phase Plot Y,DM Gain Plot X,DM Gain Plot Y
1,-89.76733547949226,1,95.88560934508104
1.029200527194428,-89.77390680404235,1.029200527194428,95.63561326361976
1.059253725177289,-89.78029082270415,1.059253725177289,95.38561696297802
1.090184492385128,-89.78649282387909,1.090184492385128,95.13562045541717
1.122018454301964,-89.79251794522251,1.122018454301964,94.88562375251277
1.154781984689459,-89.79837117789582,1.154781984689459,94.63562686519295
1.188502227437019,-89.80405737069752,1.188502227437019,94.38562980377461
1.223207119049932,-89.809581234077,1.223207119049932,94.13563257799764
1.258925411794168,-89.81494734403358,1.258925411794168,93.88563519705717
1.29568669751702,-89.82016014590464,1.29568669751702,93.63563766963408
1.333521432163325,-89.82522395804575,1.333521432163325,93.38564000392371
1.372460961007563,-89.83014297540578,1.372460961007563,93.13564220766312
1.412537544622755,-89.83492127300002,1.412537544622755,92.88564428815658
1.453784385607663,-89.83956280928409,1.453784385607663,92.63564625229999
1.496235656094435,-89.84407142943148,1.496235656094435,92.3856481066035
1.539926526059493,-89.84845086851739,1.539926526059493,92.13564985721325
1.584893192461115,-89.85270475461155,1.584893192461115,91.88565150993173
1.63117290922784,-89.85683661178244,1.63117290922784,91.6356530702369
1.678804018122562,-89.86084986301555,1.678804018122562,91.38565454330046
1.727825980507865,-89.86474783304796,1.727825980507865,91.13565593400494
1.778279410038925,-89.86853375112167,1.778279410038925,90.88565724695994
1.830206106311058,-89.87221075365788,1.830206106311058,90.63565848651723
1.883649089489803,-89.87578188685443,1.883649089489803,90.38565965678544
1.93865263595221,-89.8792501092087,1.93865263595221,90.13566076164351
1.995262314968882,-89.88261829396772,1.995262314968882,89.8856618047535
2.053525026457149,-89.88588923150792,2.053525026457149,89.63566278957288
2.11348903983665,-89.88906563164619,2.11348903983665,89.38566371936591
2.175204034019526,-89.89215012588427,2.175204034019526,89.13566459721444
2.238721138568343,-89.89514526958823,2.238721138568343,88.88566542602814
2.30409297605585,-89.89805354410512,2.30409297605585,88.63566620855423
2.37137370566166,-89.90087735881818,2.37137370566166,88.38566694738637
2.440619068041985,-89.90361905314246,2.440619068041985,88.13566764497351
2.511886431509585,-89.90628089846263,2.511886431509585,87.88566830362787
2.585234839562196,-89.90886510001432,2.585234839562196,87.63566892553257
2.660725059798815,-89.91137379871087,2.660725059798815,87.38566951274899
2.738419634264367,-89.91380907291659,2.738419634264367,87.1356700672235
2.81838293126446,-89.91617294016849,2.81838293126446,86.88567059079394
2.90068119869316,-89.91846735884729,2.90068119869316,86.63567108519574
2.985382618917967,-89.92069422979992,2.985382618917967,86.38567155206763
3.072557365267454,-89.92285539791384,3.072557365267454,86.13567199295709
3.162277660168388,-89.92495265364549,3.162277660168388,85.88567240932548
3.254617834980468,-89.92698773450327,3.254617834980468,85.6356728025529
3.349654391578286,-89.92896232648708,3.349654391578286,85.38567317394273
3.447466065731504,-89.93087806548478,3.447466065731504,85.135673524726
3.548133892335765,-89.93273653862734,3.548133892335765,84.88567385606538
3.651741272548388,-89.93453928560379,3.651741272548388,84.63567416905912
3.758374042884453,-89.93628779993658,3.758374042884453,84.38567446474468
3.868120546330533,-89.93798353021874,3.868120546330533,84.13567474410213
3.981071705534985,-89.93962788131407,3.981071705534985,83.88567500805745
4.097321098135428,-89.9412222155208,4.097321098135428,83.63567525748552
4.216965034285836,-89.94276785370023,4.216965034285836,83.3856754932131
4.340102636447452,-89.94426607637097,4.340102636447452,83.13567571602152
4.466835921509645,-89.9457181247696,4.466835921509645,82.8856759266493
4.597269885308736,-89.94712520187913,4.597269885308736,82.63567612579459
4.73151258961482,-89.94848847342551,4.73151258961482,82.38567631411749
4.869675251658648,-89.94980906884327,4.869675251658648,82.1356764922422
5.01187233627274,-89.95108808221127,5.01187233627274,81.88567666075912
5.158221650723075,-89.95232657315913,5.158221650723075,81.63567682022683
5.308844442309902,-89.95352556774488,5.308844442309902,81.38567697117391
5.463865498818562,-89.95468605930522,5.463865498818562,81.13567711410067
5.623413251903512,-89.95580900927823,5.623413251903512,80.88567724948086
5.787619883491228,-89.95689534799999,5.787619883491228,80.63567737776323
5.956621435290127,-89.95794597547527,5.956621435290127,80.38567749937295
6.13055792149823,-89.95896176212318,6.13055792149823,80.13567761471313
6.309573444801956,-89.95994354949825,6.309573444801956,79.88567772416609
6.493816315762138,-89.9608921509875,6.493816315762138,79.63567782809456
6.683439175686172,-89.96180835248452,6.683439175686172,79.3856779268431
6.878599123088104,-89.96269291304036,6.878599123088104,79.13567802073896
7.079457843841408,-89.96354656549241,7.079457843841408,78.88567811009341
7.286181745132307,-89.9643700170716,7.286181745132307,78.63567819520262
7.498942093324589,-89.96516394998821,7.498942093324589,78.38567827634866
7.717915155850156,-89.96592902199714,7.717915155850156,78.13567835380051
7.943282347242849,-89.96666586694276,7.943282347242849,77.88567842781491
8.175230379436535,-89.96737509528405,8.175230379436535,77.63567849863718
8.413951416451987,-89.9680572946004,8.413951416451987,77.38567856650205
8.659643233600692,-89.96871303007825,8.659643233600692,77.13567863163449
8.912509381337495,-89.96934284497955,8.912509381337495,76.88567869425037
9.172759353897836,-89.96994726109159,9.172759353897836,76.63567875455725
9.440608762859275,-89.97052677915946,9.440608762859275,76.38567881275502
9.716279515771106,-89.97108187930084,9.716279515771106,76.13567886903657
10.00000000000005,-89.97161302140373,10.00000000000005,75.88567892358846
10.29200527194433,-89.97212064550747,10.29200527194433,75.63567897659149
10.59253725177294,-89.97260517216742,10.59253725177294,75.3856790282214
10.90184492385133,-89.97306700280312,10.90184492385133,75.13567907864925
11.22018454301969,-89.97350652003109,11.22018454301969,74.88567912804224
11.54781984689464,-89.97392408798171,11.54781984689464,74.63567917656407
11.88502227437024,-89.97432005260094,11.88502227437024,74.38567922437555
12.23207119049937,-89.97469474193687,12.23207119049937,74.1356792716352
12.58925411794173,-89.97504846641151,12.58925411794173,73.88567931849963
12.95686697517026,-89.97538151907804,12.95686697517026,73.63567936512419
13.33521432163331,-89.97569417586347,13.33521432163331,73.38567941166342
13.72460961007569,-89.97598669579742,13.72460961007569,73.1356794582716
14.12537544622761,-89.97625932122648,14.12537544622761,72.88567950510317
14.53784385607669,-89.97651227801526,14.53784385607669,72.63567955231341
14.96235656094441,-89.97674577573326,14.96235656094441,72.38567960005877
15.399265260595,-89.97696000782871,15.399265260595,72.13567964849751
15.84893192461122,-89.97715515178869,15.84893192461122,71.8856796977902
16.31172909227847,-89.97733136928625,16.31172909227847,71.6356797481002
16.78804018122569,-89.97748880631431,16.78804018122569,71.3856797995943
17.27825980507873,-89.97762759330671,17.27825980507873,71.13567985244316
17.78279410038932,-89.97774784524613,17.78279410038932,70.88567990682196
18.30206106311066,-89.97784966175949,18.30206106311066,70.63567996291096
18.83649089489811,-89.9779331272004,18.83649089489811,70.38568002089603
19.38652635952218,-89.97799831071913,19.38652635952218,70.13568008096942
19.95262314968891,-89.97804526631982,19.95262314968891,69.88568014333019
20.53525026457158,-89.97807403290534,20.53525026457158,69.63568020818511
21.13489039836659,-89.9780846343094,21.13489039836659,69.38568027574908
21.75204034019535,-89.97807707931635,21.75204034019535,69.13568034624608
22.38721138568353,-89.97805136166859,22.38721138568353,68.88568041990979
23.04092976055859,-89.97800746006124,23.04092976055859,68.63568049698436
23.7137370566167,-89.97794533812446,23.7137370566167,68.38568057772527
24.40619068041995,-89.97786494439357,24.40619068041995,68.13568066240013
25.11886431509596,-89.97776621226623,25.11886431509596,67.88568075128963
25.85234839562207,-89.97764905994732,25.85234839562207,67.63568084468837
26.60725059798827,-89.97751339038118,26.60725059798827,67.38568094290594
27.38419634264379,-89.97735909117131,27.38419634264379,67.13568104626789
28.18382931264472,-89.97718603448713,28.18382931264472,66.88568115511686
29.00681198693173,-89.97699407695825,29.00681198693173,66.63568126981357
29.85382618917979,-89.97678305955557,29.85382618917979,66.38568139073826
30.72557365267467,-89.97655280745968,30.72557365267467,66.1356815182917
31.622776601684,-89.97630312991598,31.622776601684,65.88568165289671
32.5461783498048,-89.97603382007667,32.5461783498048,65.63568179499944
33.49654391578299,-89.9757446548295,33.49654391578299,65.3856819450709
34.47466065731518,-89.97543539461287,34.47466065731518,65.1356821036085
35.4813389233578,-89.97510578321746,35.4813389233578,64.88568227113777
36.51741272548403,-89.97475554757396,36.51741272548403,64.63568244821396
37.58374042884468,-89.97438439752699,37.58374042884468,64.38568263542403
38.6812054633055,-89.97399202559458,38.6812054633055,64.13568283338849
39.81071705535001,-89.97357810671373,39.81071705535001,63.88568304276352
40.97321098135445,-89.97314229797099,40.97321098135445,63.63568326424311
42.16965034285853,-89.97268423831846,42.16965034285853,63.38568349856138
43.4010263644747,-89.97220354827483,43.4010263644747,63.13568374649499
44.66835921509664,-89.97169982961098,44.66835921509664,62.88568400886575
45.97269885308756,-89.97117266502019,45.97269885308756,62.6356842865433
47.31512589614841,-89.97062161777251,47.31512589614841,62.38568458044803
48.69675251658668,-89.97004623135307,48.69675251658668,62.1356848915541
50.11872336272761,-89.96944602908393,50.11872336272761,61.88568522089273
51.58221650723097,-89.96882051372933,51.58221650723097,61.63568556955551
53.08844442309925,-89.96816916708387,53.08844442309925,61.38568593869813
54.63865498818585,-89.9674914495434,54.63865498818585,61.13568632954414
56.23413251903535,-89.96678679965804,56.23413251903535,60.88568674338902
57.87619883491252,-89.96605463366727,57.87619883491252,60.63568718160452
59.56621435290152,-89.96529434501653,59.56621435290152,60.3856876456431
61.30557921498256,-89.96450530385481,61.30557921498256,60.13568813704288
63.09573444801983,-89.96368685651325,63.09573444801983,59.88568865743264
64.93816315762166,-89.96283832496363,64.93816315762166,59.63568920853724
66.834391756862,-89.96195900625712,66.834391756862,59.38568979218337
68.78599123088132,-89.96104817194214,68.78599123088132,59.13569041030558
70.79457843841438,-89.9601050674611,70.79457843841438,58.88569106495264
72.86181745132338,-89.95912891152578,72.86181745132338,58.63569175829446
74.98942093324621,-89.95811889547034,74.98942093324621,58.38569249262914
77.17915155850189,-89.95707418258189,77.17915155850189,58.1356932703907
79.43282347242882,-89.9559939074077,79.43282347242882,57.88569409415707
81.7523037943657,-89.95487717503869,81.7523037943657,57.63569496665869
84.13951416452024,-89.95372306036863,84.13951416452024,57.3856958907875
86.59643233600728,-89.9525306073284,86.59643233600728,57.13569686960657
89.12509381337533,-89.95129882809439,89.12509381337533,56.88569790636027
91.72759353897877,-89.95002670227103,91.72759353897877,56.63569900448496
94.40608762859317,-89.94871317604608,94.40608762859317,56.38570016762041
97.16279515771149,-89.94735716131856,97.16279515771149,56.13570139962192
100.0000000000009,-89.94595753479815,100.0000000000009,55.88570270457298
102.9200527194437,-89.94451313707562,102.9200527194437,55.63570408679892
105.9253725177299,-89.94302277166338,105.9253725177299,55.38570555088113
109.0184492385138,-89.94148520400562,109.0184492385138,55.13570710167242
112.2018454301974,-89.93989916045659,112.2018454301974,54.88570874431286
115.4781984689469,-89.93826332722709,115.4781984689469,54.63571048424707
118.8502227437029,-89.93657634929754,118.8502227437029,54.38571232724204
122.3207119049943,-89.93483682929708,122.3207119049943,54.13571427940644
125.8925411794179,-89.93304332634784,125.8925411794179,53.8857163472107
129.5686697517032,-89.93119435487326,129.5686697517032,53.63571853750856
133.3521432163337,-89.92928838336954,133.3521432163337,53.38572085755975
137.2460961007575,-89.92732383313935,137.2460961007575,53.13572331505405
141.2537544622768,-89.92529907698651,141.2537544622768,52.88572591813676
145.3784385607676,-89.92321243787093,145.3784385607676,52.63572867543575
149.6235656094448,-89.92106218752228,149.6235656094448,52.38573159608998
153.9926526059507,-89.91884654501169,153.9926526059507,52.13573468977983
158.4893192461129,-89.91656367528012,158.4893192461129,51.88573796675917
163.1172909227854,-89.91421168762213,163.1172909227854,51.63574143788937
167.8804018122577,-89.91178863412394,167.8804018122577,51.38574511467521
172.782598050788,-89.90929250805462,172.782598050788,51.13574900930314
177.827941003894,-89.90672124220887,177.827941003894,50.88575313468152
183.0206106311074,-89.90407270720016,183.0206106311074,50.6357575044835
188.3649089489819,-89.90134470970307,188.3649089489819,50.38576213319229
193.8652635952227,-89.89853499064297,193.8652635952227,50.13576703614915
199.52623149689,-89.89564122333209,199.52623149689,49.88577222960423
205.3525026457167,-89.89266101155002,205.3525026457167,49.63577773077044
211.3489039836668,-89.88959188756765,211.3489039836668,49.38578355788045
217.5204034019545,-89.88643131011231,217.5204034019545,49.13578973024712
223.8721138568363,-89.88317666227326,223.8721138568363,48.8857962683275
230.409297605587,-89.87982524934509,230.409297605587,48.63580319379061
237.137370566168,-89.87637429660803,237.137370566168,48.38581052958921
244.0619068042006,-89.87282094704291,244.0619068042006,48.13581830003591
251.1886431509607,-89.86916225897936,251.1886431509607,47.88582653088362
258.5234839562218,-89.86539520367499,258.5234839562218,47.63583524941098
266.0725059798838,-89.86151666282417,266.0725059798838,47.38584448451266
273.841963426439,-89.8575234259942,273.841963426439,47.13585426679511
281.8382931264484,-89.85341218798662,281.8382931264484,46.88586462867799
290.0681198693185,-89.84917954612231,290.0681198693185,46.63587560450145
298.5382618917992,-89.84482199744774,298.5382618917992,46.38588723064004
307.255736526748,-89.84033593586037,307.255736526748,46.13589954562304
316.2277660168414,-89.83571764915122,316.2277660168414,45.88591259026222
325.4617834980495,-89.83096331596224,325.4617834980495,45.63592640778692
334.9654391578314,-89.82606900265594,334.9654391578314,45.38594104398728
344.7466065731533,-89.82103066009579,344.7466065731533,45.13595654736585
354.8133892335795,-89.81584412033369,354.8133892335795,44.88597296929824
365.1741272548418,-89.8105050932035,365.1741272548418,44.63599036420324
375.8374042884485,-89.80500916281723,375.8374042884485,44.38600878972306
386.8120546330566,-89.79935178396146,386.8120546330566,44.13602830691412
398.1071705535019,-89.79352827839183,398.1071705535019,43.88604898044925
409.7321098135463,-89.78753383102277,409.7321098135463,43.63607087883182
421.6965034285872,-89.78136348600944,421.6965034285872,43.38609407462247
434.010263644749,-89.7750121427197,434.010263644749,43.13611864467935
446.6835921509684,-89.76847455159321,446.6835921509684,42.8861446704125
459.7269885308777,-89.76174530988462,459.7269885308777,42.63617223805326
473.1512589614862,-89.7548188572882,473.1512589614862,42.38620143893976
486.967525165869,-89.74768947144111,486.967525165869,42.13623236981905
501.1872336272784,-89.74035126330223,501.1872336272784,41.88626513316724
515.8221650723119,-89.7327981724037,515.8221650723119,41.6362998375286
530.8844442309949,-89.72502396197218,530.8844442309949,41.3863365978746
546.3865498818609,-89.71702221391692,546.3865498818609,41.13637553598416
562.341325190356,-89.70878632368149,562.341325190356,40.88641678084649
578.7619883491278,-89.70030949495639,578.7619883491278,40.63646046908759
595.6621435290178,-89.69158473424923,595.6621435290178,40.386506745422
613.0557921498283,-89.68260484530981,613.0557921498283,40.13655576313122
630.9573444802012,-89.67336242340676,630.9573444802012,39.88660768457038
649.3816315762195,-89.6638498494532,649.3816315762195,39.63666268170481
668.3439175686232,-89.65405928397799,668.3439175686232,39.38672093667822
687.8599123088164,-89.64398266094015,687.8599123088164,39.13678264241451
707.945784384147,-89.6336116813832,707.945784384147,38.88684800325495
728.6181745132371,-89.62293780692711,728.6181745132371,38.63691723563303
749.8942093324656,-89.61195225309481,749.8942093324656,38.38699056878904
771.7915155850225,-89.60064598247091,771.7915155850225,38.13706824552672
794.3282347242919,-89.58900969769012,794.3282347242919,37.88715052301459
817.5230379436607,-89.5770338342532,817.5230379436607,37.63723767363435
841.3951416452062,-89.56470855316827,841.3951416452062,37.3873299858793
865.9643233600768,-89.55202373341545,865.9643233600768,37.13742776530556
891.2509381337574,-89.53896896423339,891.2509381337574,36.88753133553934
917.2759353897918,-89.52553353722621,917.2759353897918,36.63764103934325
944.060876285936,-89.51170643828948,944.060876285936,36.3877572397455
971.6279515771192,-89.49747633935503,971.6279515771192,36.13788032123519
1000.000000000014,-89.48283158995348,1000.000000000014,35.88801069102797
1029.200527194442,-89.46776020859505,1029.200527194442,35.63814878040576
1059.253725177303,-89.45224987396912,1059.253725177303,35.38829504613521
1090.184492385142,-89.43628791596299,1090.184492385142,35.13844997196916
1122.018454301979,-89.41986130650253,1122.018454301979,34.88861407023602
1154.781984689474,-89.40295665021573,1154.781984689474,34.63878788352227
1188.502227437035,-89.3855601749235,1188.502227437035,34.38897198645319
1223.207119049948,-89.36765772196024,1223.207119049948,34.13916698757775
1258.925411794184,-89.3492347363302,1258.925411794184,33.88937353136343
1295.686697517037,-89.33027625670435,1295.686697517037,33.63959230030752
1333.521432163342,-89.31076690526514,1333.521432163342,33.38982401717137
1372.460961007581,-89.29069087740723,1372.460961007581,33.14006944734462
1412.537544622774,-89.27003193130319,1412.537544622774,32.89032940134707
1453.784385607682,-89.2487733773457,1453.784385607682,32.64060473747578
1496.235656094454,-89.22689806747809,1496.235656094454,32.39089636460567
1539.926526059513,-89.20438838442809,1539.926526059513,32.14120524515251
1584.893192461136,-89.18122623086073,1584.893192461136,31.89153239820732
1631.172909227861,-89.15739301846898,1631.172909227861,31.64187890285178
1678.804018122584,-89.13286965702287,1678.804018122584,31.39224590166493
1727.825980507888,-89.10763654340056,1727.825980507888,31.14263460443197
1778.279410038948,-89.08167355062746,1778.279410038948,30.89304629206609
1830.206106311082,-89.05496001695303,1830.206106311082,30.6434823207555
1883.649089489827,-89.02747473499763,1883.649089489827,30.39394412634796
1938.652635952235,-88.99919594100625,1938.652635952235,30.14443322898592
1995.262314968908,-88.97010130424947,1995.262314968908,29.89495123800601
2053.525026457176,-88.94016791661647,2053.525026457176,29.64549985711729
2113.489039836678,-88.90937228245051,2113.489039836678,29.39608088987343
2175.204034019555,-88.87769030868094,2175.204034019555,29.14669624545461
2238.721138568373,-88.84509729531372,2238.721138568373,28.89734794477583
2304.09297605588,-88.81156792634647,2304.09297605588,28.64803812693889
2371.373705661691,-88.77707626118293,2371.373705661691,28.39876905604638
2440.619068042017,-88.7415957266272,2440.619068042017,28.14954312839652
2511.886431509618,-88.705099109548,2511.886431509618,27.90036288007886
2585.23483956223,-88.66755855031062,2585.23483956223,27.65123099499126
2660.72505979885,-88.62894553708399,2660.72505979885,27.40215031330002
