v /net1; tran (V) X,v /net1; tran (V) Y,v /VOUT; tran (V) X,v /VOUT; tran (V) Y,v /clk; tran (V) X,v /clk; tran (V) Y,v /net4; tran (V) X,v /net4; tran (V) Y
0,0.6,0,0.5999989800883269,0,1.199999265016675,0,0.6
1.513209633245842e-14,0.6000000000380311,1.513209633245842e-14,0.5999990607133183,1.513209633245842e-14,1.200105406719689,1.513209633245842e-14,0.6
2.721592271228231e-14,0.600000000068401,2.721592271228231e-14,0.5999991249985761,2.721592271228231e-14,1.200190213335995,2.721592271228231e-14,0.6
5.138357547193008e-14,0.600000000129141,5.138357547193008e-14,0.5999992531811086,5.138357547193008e-14,1.200359681977313,5.138357547193008e-14,0.6
9.149415892548658e-14,0.6000000002299499,9.149415892548658e-14,0.5999994646670798,9.149415892548658e-14,1.200640613803422,9.149415892548658e-14,0.6
1.591257521789935e-13,0.6000000003999266,1.591257521789935e-13,0.5999998178307776,1.591257521789935e-13,1.201113584996635,1.591257521789935e-13,0.6
2.943889386860074e-13,0.6000000007398801,2.943889386860074e-13,0.6000005118965843,2.943889386860074e-13,1.202056945185617,2.943889386860074e-13,0.6
5.183701709454972e-13,0.6000000013028063,5.183701709454972e-13,0.6000016293806797,5.183701709454972e-13,1.203613018097722,5.183701709454972e-13,0.6
7.428148175014408e-13,0.6000000018668973,7.428148175014408e-13,0.6000027148693675,7.428148175014408e-13,1.205166581111856,7.428148175014408e-13,0.6
9.779519944118235e-13,0.6000000024578614,9.779519944118235e-13,0.6000038212523737,9.779519944118235e-13,1.206790004413288,9.779519944118235e-13,0.6
1.225815017182019e-12,0.6000000030808091,1.225815017182019e-12,0.6000049599043663,1.225815017182019e-12,1.208498676925062,1.225815017182019e-12,0.6
1.487340796579459e-12,0.6000000037380951,1.487340796579459e-12,0.600006137283026,1.487340796579459e-12,1.210300697230692,1.487340796579459e-12,0.6
1.765516859019109e-12,0.6000000044372278,1.765516859019109e-12,0.6000073694020744,1.765516859019109e-12,1.212218589057426,1.765516859019109e-12,0.6
2.064707247143156e-12,0.6000000051891753,2.064707247143156e-12,0.6000086781826597,2.064707247143156e-12,1.21428435320752,2.064707247143156e-12,0.6
2.388598349970185e-12,0.6000000060032024,2.388598349970185e-12,0.6000100814877047,2.388598349970185e-12,1.216523608065021,2.388598349970185e-12,0.6
2.741124697814026e-12,0.6000000068891977,2.741124697814026e-12,0.6000115932846177,2.741124697814026e-12,1.21895557443944,2.741124697814026e-12,0.6
3.136381752604775e-12,0.6000000078825871,3.136381752604775e-12,0.6000132524931798,3.136381752604775e-12,1.221641400306041,3.136381752604775e-12,0.6
3.608902056490616e-12,0.6000000090701602,3.608902056490616e-12,0.6000151139176142,3.608902056490616e-12,1.224677645880454,3.608902056490616e-12,0.6
4.193589855056901e-12,0.6000000105396408,4.193589855056901e-12,0.6000169790506011,4.193589855056901e-12,1.227788107427042,4.193589855056901e-12,0.6
4.649485184044557e-12,0.6000000116854308,4.649485184044557e-12,0.6000178314662955,4.649485184044557e-12,1.229329528750152,4.649485184044557e-12,0.6
5.024459475924545e-12,0.600000012627844,5.024459475924545e-12,0.6000179263523993,5.024459475924545e-12,1.229707783439551,5.024459475924545e-12,0.6
5.353006725218646e-12,0.6000000134535732,5.353006725218646e-12,0.6000174016190153,5.353006725218646e-12,1.229153962358916,5.353006725218646e-12,0.6
5.655331134761558e-12,0.6000000142133973,5.655331134761558e-12,0.6000163081851579,5.655331134761558e-12,1.227749301409041,5.655331134761558e-12,0.6
5.962097282430838e-12,0.6000000149843848,5.962097282430838e-12,0.6000145046907425,5.962097282430838e-12,1.225304059287421,5.962097282430838e-12,0.6
6.283842646065038e-12,0.6000000157930191,6.283842646065038e-12,0.6000117709337986,6.283842646065038e-12,1.221496768434953,6.283842646065038e-12,0.6
6.479989029240593e-12,0.6000000162859888,6.479989029240593e-12,0.6000096282781574,6.479989029240593e-12,1.218507044264047,6.479989029240593e-12,0.6
6.650389930455506e-12,0.6000000167142528,6.650389930455506e-12,0.6000074789034696,6.650389930455506e-12,1.215478731620012,6.650389930455506e-12,0.6
6.838261998975497e-12,0.6000000171864269,6.838261998975497e-12,0.6000047872232036,6.838261998975497e-12,1.211654012007889,6.838261998975497e-12,0.6
6.943432115092893e-12,0.6000000174507483,6.943432115092893e-12,0.6000031261627683,6.943432115092893e-12,1.209274536268959,6.943432115092893e-12,0.6
7.027092057784437e-12,0.6000000176610086,7.027092057784437e-12,0.6000017331855616,7.027092057784437e-12,1.207269813140311,7.027092057784437e-12,0.6
7.092865785725132e-12,0.6000000178263161,7.092865785725132e-12,0.6000005916310315,7.092865785725132e-12,1.205619911962565,7.092865785725132e-12,0.6
7.167637504706444e-12,0.6000000180142379,7.167637504706444e-12,0.5999992449101164,7.167637504706444e-12,1.203665281571589,7.167637504706444e-12,0.6
7.317180942669068e-12,0.6000000183900815,7.317180942669068e-12,0.5999963954868088,7.317180942669068e-12,1.19949951048575,7.317180942669068e-12,0.6
7.590085084620501e-12,0.6000000190759645,7.590085084620501e-12,0.5999906785667248,7.590085084620501e-12,1.191015369649497,7.590085084620501e-12,0.6
7.868237053432573e-12,0.6000000197750366,7.868237053432573e-12,0.599984174320111,7.868237053432573e-12,1.181186242092361,7.868237053432573e-12,0.6
8.166858751332068e-12,0.6000000205255548,8.166858751332068e-12,0.5999764626457799,8.166858751332068e-12,1.169289470714185,8.166858751332068e-12,0.6
8.52150211230684e-12,0.6000000214168707,8.52150211230684e-12,0.5999663677970944,8.52150211230684e-12,1.153317130035997,8.52150211230684e-12,0.6
8.977045727669216e-12,0.6000000225617768,8.977045727669216e-12,0.5999519895660292,8.977045727669216e-12,1.129775268983123,8.977045727669216e-12,0.6
9.57238856550726e-12,0.6000000240580364,9.57238856550726e-12,0.5999309925742879,9.57238856550726e-12,1.093643819291225,9.57238856550726e-12,0.6
9.999999999999999e-12,0.6000000251327412,9.999999999999999e-12,0.5999144914985859,9.999999999999999e-12,1.063715907744597,9.999999999999999e-12,0.6
1.009422503594966e-11,0.6000000253695545,1.009422503594966e-11,0.5999104053565417,1.009422503594966e-11,1.056195362403417,1.009422503594966e-11,0.6
1.018418980685916e-11,0.6000000255956607,1.018418980685916e-11,0.5999065410937937,1.018418980685916e-11,1.049000217421987,1.018418980685916e-11,0.6
1.028115760743202e-11,0.6000000258393673,1.028115760743202e-11,0.5999024229962551,1.028115760743202e-11,1.041237976382836,1.028115760743202e-11,0.6
1.046202480634604e-11,0.6000000262939362,1.046202480634604e-11,0.5998948696027344,1.046202480634604e-11,1.026750065432961,1.046202480634604e-11,0.6
1.081669415748467e-11,0.6000000271853175,1.081669415748467e-11,0.5998804768445026,1.081669415748467e-11,0.9983197624427588,1.081669415748467e-11,0.6
1.119940975393432e-11,0.6000000281471867,1.119940975393432e-11,0.5998654484762609,1.119940975393432e-11,0.9676499532787616,1.119940975393432e-11,0.6
1.159172904576494e-11,0.6000000291331926,1.159172904576494e-11,0.5998504719099793,1.159172904576494e-11,0.9362732507568935,1.159172904576494e-11,0.6
1.200316837957691e-11,0.6000000301672525,1.200316837957691e-11,0.5998351831768058,1.200316837957691e-11,0.9034858564707473,1.200316837957691e-11,0.6
1.24257113274776e-11,0.6000000312292187,1.24257113274776e-11,0.5998199814828291,1.24257113274776e-11,0.8699902050039369,1.24257113274776e-11,0.6
1.275978310872844e-11,0.6000000320688327,1.275978310872844e-11,0.5998084195860937,1.275978310872844e-11,0.8436744750800542,1.275978310872844e-11,0.6
1.304027305662645e-11,0.6000000327737808,1.304027305662645e-11,0.5997990887189282,1.304027305662645e-11,0.8217159540601608,1.304027305662645e-11,0.6
1.3327740853208e-11,0.6000000334962662,1.3327740853208e-11,0.5997899051812255,1.3327740853208e-11,0.7993543194099691,1.3327740853208e-11,0.6
1.371469945915466e-11,0.6000000344687992,1.371469945915466e-11,0.5997781193286609,1.371469945915466e-11,0.7694976900817952,1.371469945915466e-11,0.6
1.402381595327051e-11,0.6000000352456937,1.402381595327051e-11,0.5997691120224108,1.402381595327051e-11,0.7458582142222344,1.402381595327051e-11,0.6
1.432126371480708e-11,0.6000000359932615,1.432126371480708e-11,0.599760716400612,1.432126371480708e-11,0.7232891214032396,1.432126371480708e-11,0.6
1.461140535756298e-11,0.6000000367224669,1.461140535756298e-11,0.5997527248047237,1.461140535756298e-11,0.7014392615620066,1.461140535756298e-11,0.6
1.490582786451413e-11,0.6000000374624315,1.490582786451413e-11,0.5997447643744707,1.490582786451413e-11,0.6794285919106587,1.490582786451413e-11,0.6
1.521698448700982e-11,0.6000000382444534,1.521698448700982e-11,0.5997364678245881,1.521698448700982e-11,0.6563380522551755,1.521698448700982e-11,0.6
1.554988120312236e-11,0.600000039081114,1.554988120312236e-11,0.5997276847083751,1.554988120312236e-11,0.6318232094169097,1.554988120312236e-11,0.6
1.592450290729345e-11,0.6000000400226411,1.592450290729345e-11,0.5997178646065209,1.592450290729345e-11,0.6044669401846743,1.592450290729345e-11,0.6
1.629731023359727e-11,0.600000040959608,1.629731023359727e-11,0.5997081241598271,1.629731023359727e-11,0.5774887710364421,1.629731023359727e-11,0.6
1.666959949858154e-11,0.600000041895273,1.666959949858154e-11,0.5996984084281226,1.666959949858154e-11,0.5508037169700952,1.666959949858154e-11,0.6
1.70258577769254e-11,0.6000000427906478,1.70258577769254e-11,0.599689112568595,1.70258577769254e-11,0.5255243944664469,1.70258577769254e-11,0.6
1.736500347335871e-11,0.6000000436430138,1.736500347335871e-11,0.599680264542348,1.736500347335871e-11,0.5017130375969991,1.736500347335871e-11,0.6
1.769343075298991e-11,0.6000000444684417,1.769343075298991e-11,0.599671702480147,1.769343075298991e-11,0.4789120113110921,1.769343075298991e-11,0.6
1.801491341681385e-11,0.6000000452764157,1.801491341681385e-11,0.5996633360273903,1.801491341681385e-11,0.4568614839606894,1.801491341681385e-11,0.6
1.833444024746131e-11,0.6000000460794742,1.833444024746131e-11,0.5996550478424019,1.833444024746131e-11,0.4352366512741019,1.833444024746131e-11,0.6
1.863254803759165e-11,0.6000000468287008,1.863254803759165e-11,0.5996473518535921,1.863254803759165e-11,0.4153467656628992,1.863254803759165e-11,0.6
1.898401217966946e-11,0.6000000477120265,1.898401217966946e-11,0.5996383230187162,1.898401217966946e-11,0.3922951606928106,1.898401217966946e-11,0.6
1.937527951575019e-11,0.6000000486953886,1.937527951575019e-11,0.5996283959477304,1.937527951575019e-11,0.3672179327985657,1.937527951575019e-11,0.6
1.981309202304261e-11,0.6000000497957314,1.981309202304261e-11,0.5996175536373548,1.981309202304261e-11,0.3400890316815405,1.981309202304261e-11,0.6
2.022410915189818e-11,0.6000000508287302,2.022410915189818e-11,0.5996077356133899,2.022410915189818e-11,0.3157424601035758,2.022410915189818e-11,0.6
2.053562958059033e-11,0.6000000516116664,2.053562958059033e-11,0.5996005660035384,2.053562958059033e-11,0.298093445127264,2.053562958059033e-11,0.6
2.081572799544525e-11,0.6000000523156305,2.081572799544525e-11,0.5995943416896051,2.081572799544525e-11,0.2828611479273338,2.081572799544525e-11,0.6
2.113109952532442e-11,0.6000000531082456,2.113109952532442e-11,0.5995876014215187,2.113109952532442e-11,0.2664609831613117,2.113109952532442e-11,0.6
2.15455449070412e-11,0.6000000541498605,2.15455449070412e-11,0.5995791899048134,2.15455449070412e-11,0.2461383339464554,2.15455449070412e-11,0.6
2.203042501012216e-11,0.6000000553684971,2.203042501012216e-11,0.5995699942513439,2.203042501012216e-11,0.2241232550791958,2.203042501012216e-11,0.6
2.256534338475324e-11,0.6000000567128936,2.256534338475324e-11,0.5995606391207786,2.256534338475324e-11,0.2019720227285814,2.256534338475324e-11,0.6
2.314508133458879e-11,0.600000058169934,2.314508133458879e-11,0.5995513917829435,2.314508133458879e-11,0.1803624988360565,2.314508133458879e-11,0.6
2.376628844877971e-11,0.6000000597311977,2.376628844877971e-11,0.5995424423588034,2.376628844877971e-11,0.1597799393146647,2.376628844877971e-11,0.6
2.442195617483941e-11,0.6000000613790705,2.442195617483941e-11,0.5995339843581279,2.442195617483941e-11,0.1406907106241153,2.442195617483941e-11,0.6
2.509287152571697e-11,0.6000000630652647,2.509287152571697e-11,0.599526282259744,2.509287152571697e-11,0.1236700617060241,2.509287152571697e-11,0.6
2.57574513960937e-11,0.600000064735536,2.57574513960937e-11,0.5995195084379989,2.57574513960937e-11,0.1090263755376895,2.57574513960937e-11,0.6
2.643327906741334e-11,0.6000000664340762,2.643327906741334e-11,0.5995134045435042,2.643327906741334e-11,0.09611685931193961,2.643327906741334e-11,0.6
2.701529422324378e-11,0.6000000678968399,2.701529422324378e-11,0.599508725771342,2.701529422324378e-11,0.0864148433642397,2.701529422324378e-11,0.6
2.751407452397596e-11,0.6000000691504115,2.751407452397596e-11,0.5995051039807363,2.751407452397596e-11,0.07902727640118064,2.751407452397596e-11,0.6
2.796337958825219e-11,0.6000000702796383,2.796337958825219e-11,0.5995021229154907,2.796337958825219e-11,0.07302836339415299,2.796337958825219e-11,0.6
2.8389860865844e-11,0.6000000713515027,2.8389860865844e-11,0.5994995202010416,2.8389860865844e-11,0.06785222511754342,2.8389860865844e-11,0.6
2.880639188521515e-11,0.6000000723983593,2.880639188521515e-11,0.599497175023805,2.880639188521515e-11,0.06323800175604692,2.880639188521515e-11,0.6
2.92257712859414e-11,0.6000000734523747,2.92257712859414e-11,0.5994949954786393,2.92257712859414e-11,0.05899268755036805,2.92257712859414e-11,0.6
2.950395878517945e-11,0.6000000741515361,2.950395878517945e-11,0.5994936451162609,2.950395878517945e-11,0.05638366043316795,2.950395878517945e-11,0.6
2.974592805526386e-11,0.6000000747596712,2.974592805526386e-11,0.5994925291989714,2.974592805526386e-11,0.05424007811325116,2.974592805526386e-11,0.6
3.001976602937545e-11,0.6000000754479011,3.001976602937545e-11,0.599491328662877,3.001976602937545e-11,0.05194670109806172,3.001976602937545e-11,0.6
3.048555436526356e-11,0.6000000766185549,3.048555436526356e-11,0.5994894289723205,3.048555436526356e-11,0.04834508881409835,3.048555436526356e-11,0.6
3.100748386301413e-11,0.6000000779303067,3.100748386301413e-11,0.5994875004507871,3.100748386301413e-11,0.04472444947720033,3.100748386301413e-11,0.6
3.163550344777282e-11,0.6000000795086922,3.163550344777282e-11,0.5994854277126039,3.163550344777282e-11,0.04087411812955591,3.163550344777282e-11,0.6
3.24713980639563e-11,0.6000000816095244,3.24713980639563e-11,0.5994829735702184,3.24713980639563e-11,0.03635964185378304,3.24713980639563e-11,0.6
3.286379162543089e-11,0.600000082595717,3.286379162543089e-11,0.599481923453598,3.286379162543089e-11,0.03444362521346718,3.286379162543089e-11,0.6
3.321688903284984e-11,0.6000000834831476,3.321688903284984e-11,0.5994810263191678,3.321688903284984e-11,0.03281325922130665,3.321688903284984e-11,0.6
3.392308384768774e-11,0.6000000852580087,3.392308384768774e-11,0.5994793474481489,3.392308384768774e-11,0.0297766587282999,3.392308384768774e-11,0.6
3.482423742776587e-11,0.6000000875228547,3.482423742776587e-11,0.5994774036040889,3.482423742776587e-11,0.02628229846041297,3.482423742776587e-11,0.6
3.551051334494007e-11,0.6000000892476542,3.551051334494007e-11,0.5994760637483333,3.551051334494007e-11,0.02388625647014472,3.551051334494007e-11,0.6
3.626947182559957e-11,0.600000091155125,3.626947182559957e-11,0.5994747173397263,3.626947182559957e-11,0.02148974413783736,3.626947182559957e-11,0.6
3.669002773582456e-11,0.6000000922120973,3.669002773582456e-11,0.5994740314670902,3.669002773582456e-11,0.02027348787906195,3.669002773582456e-11,0.6
3.711066065969841e-11,0.6000000932692631,3.711066065969841e-11,0.5994733857597165,3.711066065969841e-11,0.01913138341724196,3.711066065969841e-11,0.6
3.751151160142587e-11,0.6000000942767114,3.751151160142587e-11,0.5994728055472438,3.751151160142587e-11,0.01810744012498118,3.751151160142587e-11,0.6
3.786466975710826e-11,0.6000000951642946,3.786466975710826e-11,0.5994723210258893,3.786466975710826e-11,0.0172540161297755,3.786466975710826e-11,0.6
3.819240393836199e-11,0.6000000959879805,3.819240393836199e-11,0.599471892540245,3.819240393836199e-11,0.01650050000639452,3.819240393836199e-11,0.6
3.849516011764291e-11,0.6000000967488898,3.849516011764291e-11,0.5994715140196779,3.849516011764291e-11,0.01583581127514894,3.849516011764291e-11,0.6
3.877625306321578e-11,0.6000000974553534,3.877625306321578e-11,0.5994711769428984,3.877625306321578e-11,0.01524465339545719,3.877625306321578e-11,0.6
3.904271721320533e-11,0.6000000981250508,3.904271721320533e-11,0.5994708697617117,3.904271721320533e-11,0.01470655391536298,3.904271721320533e-11,0.6
3.930112914644777e-11,0.6000000987745109,3.930112914644777e-11,0.5994705829786469,3.930112914644777e-11,0.01420473121077437,3.930112914644777e-11,0.6
3.955635276234844e-11,0.6000000994159578,3.955635276234844e-11,0.5994703101212383,3.955635276234844e-11,0.01372776576675081,3.955635276234844e-11,0.6
3.981350951798005e-11,0.6000001000622632,3.981350951798005e-11,0.5994700451283587,3.981350951798005e-11,0.01326498799284493,3.981350951798005e-11,0.6
4.007867051169691e-11,0.6000001007286855,4.007867051169691e-11,0.5994697819498914,4.007867051169691e-11,0.01280581270148799,4.007867051169691e-11,0.6
4.036332687305198e-11,0.6000001014441049,4.036332687305198e-11,0.5994695113067507,4.036332687305198e-11,0.01233419365859403,4.036332687305198e-11,0.6
4.066454997844247e-11,0.6000001022011612,4.066454997844247e-11,0.5994692376676173,4.066454997844247e-11,0.01185795864337297,4.066454997844247e-11,0.6
4.093319603735153e-11,0.6000001028763423,4.093319603735153e-11,0.5994690051232363,4.093319603735153e-11,0.01145385521226384,4.093319603735153e-11,0.6
4.118609284443883e-11,0.6000001035119413,4.118609284443883e-11,0.5994687961267418,4.118609284443883e-11,0.01109115942520272,4.118609284443883e-11,0.6
4.147956896235657e-11,0.6000001042495273,4.147956896235657e-11,0.5994685658010543,4.147956896235657e-11,0.01069218796031302,4.147956896235657e-11,0.6
4.17476342186043e-11,0.6000001049232487,4.17476342186043e-11,0.5994683669077114,4.17476342186043e-11,0.0103483890375473,4.17476342186043e-11,0.6
4.211992598923065e-11,0.6000001058589201,4.211992598923065e-11,0.599468107938726,4.211992598923065e-11,0.009901848912515658,4.211992598923065e-11,0.6
4.238613394626764e-11,0.6000001065279736,4.238613394626764e-11,0.5994679351480483,4.238613394626764e-11,0.009604755579841666,4.238613394626764e-11,0.6
4.266560714537989e-11,0.6000001072303663,4.266560714537989e-11,0.5994677642703492,4.266560714537989e-11,0.009311688244872218,4.266560714537989e-11,0.6
4.300007950585815e-11,0.600000108070987,4.300007950585815e-11,0.5994675730533666,4.300007950585815e-11,0.008984667507840072,4.300007950585815e-11,0.6
4.337317662542628e-11,0.6000001090086824,4.337317662542628e-11,0.5994673754838437,4.337317662542628e-11,0.008647863318155851,4.337317662542628e-11,0.6
4.379034780181777e-11,0.6000001100571479,4.379034780181777e-11,0.5994671728124306,4.379034780181777e-11,0.008303589685127953,4.379034780181777e-11,0.6
4.425435415910546e-11,0.6000001112233231,4.425435415910546e-11,0.599466966262746,4.425435415910546e-11,0.007953777163319006,4.425435415910546e-11,0.6
4.476294937197876e-11,0.6000001125015623,4.476294937197876e-11,0.5994667587722553,4.476294937197876e-11,0.007603096526213285,4.476294937197876e-11,0.6
4.530880705178147e-11,0.6000001138734523,4.530880705178147e-11,0.599466554112649,4.530880705178147e-11,0.007257496466744383,4.530880705178147e-11,0.6
4.587431114214201e-11,0.6000001152947191,4.587431114214201e-11,0.5994663568532276,4.587431114214201e-11,0.006923945883890246,4.587431114214201e-11,0.6
4.645280305170589e-11,0.6000001167486279,4.645280305170589e-11,0.5994661667293177,4.645280305170589e-11,0.006601403532836598,4.645280305170589e-11,0.6
4.707844191217739e-11,0.6000001183210297,4.707844191217739e-11,0.5994659711311374,4.707844191217739e-11,0.006267904801026135,4.707844191217739e-11,0.6
4.760561360402772e-11,0.6000001196459568,4.760561360402772e-11,0.5994658135613927,4.760561360402772e-11,0.005997839223205456,4.760561360402772e-11,0.6
